
OBLIQUITY: 23.50 degrees


**LATITUDE GRID DATA**
          x      dx    latitude(rad)  latitude(deg)
    0  -1.000   0.001     -1.571        -90.0
    1  -0.999   0.008     -1.527        -87.5
    2  -0.991   0.015     -1.440        -82.5
    3  -0.976   0.023     -1.353        -77.5
    4  -0.954   0.030     -1.265        -72.5
    5  -0.924   0.037     -1.178        -67.5
    6  -0.887   0.044     -1.091        -62.5
    7  -0.843   0.050     -1.004        -57.5
    8  -0.793   0.056     -0.916        -52.5
    9  -0.737   0.062     -0.829        -47.5
   10  -0.676   0.067     -0.742        -42.5
   11  -0.609   0.071     -0.654        -37.5
   12  -0.537   0.076     -0.567        -32.5
   13  -0.462   0.079     -0.480        -27.5
   14  -0.383   0.082     -0.393        -22.5
   15  -0.301   0.084     -0.305        -17.5
   16  -0.216   0.086     -0.218        -12.5
   17  -0.131   0.087     -0.131         -7.5
   18  -0.044   0.087     -0.044         -2.5
   19   0.044   0.087      0.044          2.5
   20   0.131   0.086      0.131          7.5
   21   0.216   0.084      0.218         12.5
   22   0.301   0.082      0.305         17.5
   23   0.383   0.079      0.393         22.5
   24   0.462   0.076      0.480         27.5
   25   0.537   0.071      0.567         32.5
   26   0.609   0.067      0.654         37.5
   27   0.676   0.062      0.742         42.5
   28   0.737   0.056      0.829         47.5
   29   0.793   0.050      0.916         52.5
   30   0.843   0.044      1.004         57.5
   31   0.887   0.037      1.091         62.5
   32   0.924   0.030      1.178         67.5
   33   0.954   0.023      1.265         72.5
   34   0.976   0.015      1.353         77.5
   35   0.991   0.008      1.440         82.5
   36   0.999   0.001      1.527         87.5
   37   1.000   0.000      1.571         90.0

SUMMARY
   planet average temperature = 241.744 Kelvin
   planet average albedo =   0.583
   planet average insolation = 319.545 Watts/m^2
   planet average outgoing infrared = 134.134 Watts/m^2
   seasonal-average weathering rate =  1.94826E-19 g/year
   co2 partial pressure =  9.10463E-02 bars
   surface water vapor % (by volume) =   0.000
   total surface pressure =  1.09100E+00 bars
   thermal diffusion coefficient (D) =  7.85465E-02 Watts/m^2 K
   convergence to final temperature profile in  1.89372E+08 seconds
   calculation completed after   7 orbits

ZONAL STATISTICS
 latitude(deg)  ave temp(K)  min temp(K)  max temp(K)  @dec(deg)  seas.amp(K)

OUTPUT FILES
    -88.          207.961      167.853     256.79      -21.442      44.47
    -82.          208.506      168.666     256.01      -21.270      43.67
    -77.          210.105      170.866     253.96      -20.439      41.55
    -72.          212.677      175.089     251.33      -18.781      38.12
    -68.          216.090      180.789     249.30      -15.869      34.26
    -62.          220.163      187.413     248.59      -13.424      30.59
    -58.          224.634      194.589     248.86      -12.014      27.14
    -52.          229.234      202.084     249.68      -10.902      23.80
    -47.          233.752      209.698     250.76       -9.688      20.53
    -43.          238.026      217.256     252.01        0.039      17.38
    -37.          241.942      224.633     253.45        0.039      14.41
    -32.          245.426      231.656     254.76        0.039      11.55
    -28.          248.438      238.101     255.88        0.039       8.89
    -23.          250.958      243.740     256.73        0.039       6.49
    -18.          252.979      248.184     257.27        0.039       4.54
    -13.          254.489      251.506     257.51        1.767       3.00
     -7.          255.490      253.836     257.47        4.534       1.81
     -2.          255.986      255.348     257.02        8.657       0.83
      2.          255.976      254.799     256.71      -10.571       0.96
      7.          255.420      252.672     257.36       -4.607       2.34
     12.          254.330      249.288     257.90       -0.349       4.30
     17.          252.705      244.500     258.44        4.306       6.97
     23.          250.556      238.445     258.97        9.284      10.26
     28.          247.910      231.760     259.01       10.366      13.63
     32.          244.789      224.799     258.49       10.187      16.85
     38.          241.213      217.669     257.67       11.248      20.00
     42.          237.233      210.464     256.53       11.941      23.03
     47.          232.930      203.282     255.12       12.351      25.92
     52.          228.421      196.281     253.62       12.924      28.67
     58.          223.870      189.645     252.16       13.812      31.26
     63.          219.493      183.570     250.83       14.674      33.63
     68.          215.554      178.216     249.71       15.384      35.75
     72.          212.312      173.673     249.01       16.102      37.67
     78.          209.893      170.084     248.79       16.365      39.35
     82.          208.393      167.990     248.78       16.365      40.39
     88.          207.882      167.074     248.79       16.278      40.86

ICE LINES (Tave = 263K)
   planet is an ice-ball.

CO2 CONDENSATION
  planet average co2 ice cloud coverage = 0.060
  atmospheric CO2 % loss to surface =  8.95

GEOGRAPHIC DATA
planet ocean fraction: 0.7
coast latitude:   0.0
geography: 1
number of belts: 36
  latitude of belt center  belt ocean fraction
           -87.5                   0.000
           -82.5                   0.000
           -77.5                   0.107
           -72.5                   0.386
           -67.5                   0.795
           -62.5                   0.997
           -57.5                   0.999
           -52.5                   0.985
           -47.5                   0.975
           -42.5                   0.964
           -37.5                   0.934
           -32.5                   0.842
           -27.5                   0.784
           -22.5                   0.754
           -17.5                   0.764
           -12.5                   0.796
            -7.5                   0.769
            -2.5                   0.759
             2.5                   1.000
             7.5                   0.852
            12.5                   0.771
            17.5                   0.655
            22.5                   0.287
            27.5                   0.312
            32.5                   0.450
            37.5                   0.407
            42.5                   0.438
            47.5                   0.512
            52.5                   0.568
            57.5                   0.577
            62.5                   0.596
            67.5                   0.652
            72.5                   0.708
            77.5                   0.765
            82.5                   0.757
            87.5                   0.786
