
OBLIQUITY: 23.50 degrees


**LATITUDE GRID DATA**
          x      dx    latitude(rad)  latitude(deg)
    0  -1.000   0.001     -1.571        -90.0
    1  -0.999   0.008     -1.527        -87.5
    2  -0.991   0.015     -1.440        -82.5
    3  -0.976   0.023     -1.353        -77.5
    4  -0.954   0.030     -1.265        -72.5
    5  -0.924   0.037     -1.178        -67.5
    6  -0.887   0.044     -1.091        -62.5
    7  -0.843   0.050     -1.004        -57.5
    8  -0.793   0.056     -0.916        -52.5
    9  -0.737   0.062     -0.829        -47.5
   10  -0.676   0.067     -0.742        -42.5
   11  -0.609   0.071     -0.654        -37.5
   12  -0.537   0.076     -0.567        -32.5
   13  -0.462   0.079     -0.480        -27.5
   14  -0.383   0.082     -0.393        -22.5
   15  -0.301   0.084     -0.305        -17.5
   16  -0.216   0.086     -0.218        -12.5
   17  -0.131   0.087     -0.131         -7.5
   18  -0.044   0.087     -0.044         -2.5
   19   0.044   0.087      0.044          2.5
   20   0.131   0.086      0.131          7.5
   21   0.216   0.084      0.218         12.5
   22   0.301   0.082      0.305         17.5
   23   0.383   0.079      0.393         22.5
   24   0.462   0.076      0.480         27.5
   25   0.537   0.071      0.567         32.5
   26   0.609   0.067      0.654         37.5
   27   0.676   0.062      0.742         42.5
   28   0.737   0.056      0.829         47.5
   29   0.793   0.050      0.916         52.5
   30   0.843   0.044      1.004         57.5
   31   0.887   0.037      1.091         62.5
   32   0.924   0.030      1.178         67.5
   33   0.954   0.023      1.265         72.5
   34   0.976   0.015      1.353         77.5
   35   0.991   0.008      1.440         82.5
   36   0.999   0.001      1.527         87.5
   37   1.000   0.000      1.571         90.0

SUMMARY
   planet average temperature = 219.784 Kelvin
   planet average albedo =   0.610
   planet average insolation = 319.545 Watts/m^2
   planet average outgoing infrared = 126.087 Watts/m^2
   seasonal-average weathering rate =  1.94826E-19 g/year
   co2 partial pressure =  9.99968E-05 bars
   surface water vapor % (by volume) =   0.000
   total surface pressure =  1.00006E+00 bars
   thermal diffusion coefficient (D) =  2.50376E-02 Watts/m^2 K
   convergence to final temperature profile in  1.57810E+08 seconds
   calculation completed after   6 orbits

ZONAL STATISTICS
 latitude(deg)  ave temp(K)  min temp(K)  max temp(K)  @dec(deg)  seas.amp(K)

OUTPUT FILES
    -88.          180.757      150.000     238.77      -20.599      44.39
    -82.          181.148      150.000     238.12      -20.500      44.06
    -77.          182.389      150.000     236.36      -20.108      43.18
    -72.          184.771      150.000     234.01      -19.283      42.01
    -68.          188.825      150.000     232.54      -17.706      41.27
    -62.          195.633      161.724     232.88      -16.713      35.58
    -58.          201.802      171.253     234.42      -16.570      31.59
    -52.          207.367      179.058     236.41      -16.883      28.67
    -47.          212.391      186.204     238.23      -17.327      26.01
    -43.          216.896      192.950     239.42      -16.826      23.23
    -37.          220.883      199.272     240.19      -16.223      20.46
    -32.          224.347      205.113     240.69      -16.018      17.79
    -28.          227.299      210.586     240.84      -15.780      15.13
    -23.          229.744      215.653     240.60      -15.266      12.47
    -18.          231.687      220.354     239.93      -14.074       9.79
    -13.          233.126      224.572     238.84      -12.117       7.14
     -7.          234.083      228.352     237.48       -4.040       4.56
     -2.          234.550      231.647     236.38        5.841       2.36
      2.          234.546      231.647     236.42       -6.217       2.39
      7.          234.069      228.243     237.53        4.151       4.64
     12.          233.096      224.199     239.01       12.487       7.41
     17.          231.624      219.533     240.34       15.384      10.40
     23.          229.626      214.203     241.44       18.175      13.62
     28.          227.114      208.534     242.03       18.530      16.75
     32.          224.076      202.477     242.09       18.175      19.81
     38.          220.517      195.984     241.85       18.505      22.93
     42.          216.437      189.174     241.20       18.580      26.01
     47.          211.846      182.112     240.15       18.505      29.02
     52.          206.770      174.912     238.84       18.996      31.97
     58.          201.223      167.537     236.89       18.605      34.68
     63.          195.202      158.629     234.64       18.175      38.00
     68.          188.886      150.000     232.47       17.835      41.23
     72.          185.016      150.000     230.91       17.809      40.46
     78.          182.510      150.000     230.16       17.351      40.08
     82.          181.094      150.000     229.81       17.048      39.90
     88.          180.628      150.000     229.71       16.908      39.85

ICE LINES (Tave = 263K)
   planet is an ice-ball.

CO2 CONDENSATION
  planet average co2 ice cloud coverage = 0.000
  atmospheric CO2 % loss to surface =  0.00

GEOGRAPHIC DATA
planet ocean fraction: 0.7
coast latitude:   0.0
geography: 1
number of belts: 36
  latitude of belt center  belt ocean fraction
           -87.5                   0.000
           -82.5                   0.000
           -77.5                   0.107
           -72.5                   0.386
           -67.5                   0.795
           -62.5                   0.997
           -57.5                   0.999
           -52.5                   0.985
           -47.5                   0.975
           -42.5                   0.964
           -37.5                   0.934
           -32.5                   0.842
           -27.5                   0.784
           -22.5                   0.754
           -17.5                   0.764
           -12.5                   0.796
            -7.5                   0.769
            -2.5                   0.759
             2.5                   1.000
             7.5                   0.852
            12.5                   0.771
            17.5                   0.655
            22.5                   0.287
            27.5                   0.312
            32.5                   0.450
            37.5                   0.407
            42.5                   0.438
            47.5                   0.512
            52.5                   0.568
            57.5                   0.577
            62.5                   0.596
            67.5                   0.652
            72.5                   0.708
            77.5                   0.765
            82.5                   0.757
            87.5                   0.786
