
OBLIQUITY: 23.50 degrees


**LATITUDE GRID DATA**
          x      dx    latitude(rad)  latitude(deg)
    0  -1.000   0.001     -1.571        -90.0
    1  -0.999   0.008     -1.527        -87.5
    2  -0.991   0.015     -1.440        -82.5
    3  -0.976   0.023     -1.353        -77.5
    4  -0.954   0.030     -1.265        -72.5
    5  -0.924   0.037     -1.178        -67.5
    6  -0.887   0.044     -1.091        -62.5
    7  -0.843   0.050     -1.004        -57.5
    8  -0.793   0.056     -0.916        -52.5
    9  -0.737   0.062     -0.829        -47.5
   10  -0.676   0.067     -0.742        -42.5
   11  -0.609   0.071     -0.654        -37.5
   12  -0.537   0.076     -0.567        -32.5
   13  -0.462   0.079     -0.480        -27.5
   14  -0.383   0.082     -0.393        -22.5
   15  -0.301   0.084     -0.305        -17.5
   16  -0.216   0.086     -0.218        -12.5
   17  -0.131   0.087     -0.131         -7.5
   18  -0.044   0.087     -0.044         -2.5
   19   0.044   0.087      0.044          2.5
   20   0.131   0.086      0.131          7.5
   21   0.216   0.084      0.218         12.5
   22   0.301   0.082      0.305         17.5
   23   0.383   0.079      0.393         22.5
   24   0.462   0.076      0.480         27.5
   25   0.537   0.071      0.567         32.5
   26   0.609   0.067      0.654         37.5
   27   0.676   0.062      0.742         42.5
   28   0.737   0.056      0.829         47.5
   29   0.793   0.050      0.916         52.5
   30   0.843   0.044      1.004         57.5
   31   0.887   0.037      1.091         62.5
   32   0.924   0.030      1.178         67.5
   33   0.954   0.023      1.265         72.5
   34   0.976   0.015      1.353         77.5
   35   0.991   0.008      1.440         82.5
   36   0.999   0.001      1.527         87.5
   37   1.000   0.000      1.571         90.0

SUMMARY
   planet average temperature = 242.159 Kelvin
   planet average albedo =   0.583
   planet average insolation = 319.545 Watts/m^2
   planet average outgoing infrared = 133.379 Watts/m^2
   seasonal-average weathering rate =  1.94826E-19 g/year
   co2 partial pressure =  9.99829E-02 bars
   surface water vapor % (by volume) =   0.000
   total surface pressure =  1.10001E+00 bars
   thermal diffusion coefficient (D) =  7.85465E-02 Watts/m^2 K
   convergence to final temperature profile in  1.89372E+08 seconds
   calculation completed after   7 orbits

ZONAL STATISTICS
 latitude(deg)  ave temp(K)  min temp(K)  @dec(deg)  max temp(K)  @dec(deg)  seas.amp(K)

OUTPUT FILES
    -88.          208.210      165.894       5.73      257.550     -21.41       45.828
    -82.          208.774      167.064       5.85      256.760     -21.22       44.848
    -77.          210.382      170.365       7.40      254.635     -20.36       42.135
    -72.          212.943      175.051       8.77      251.904     -18.63       38.427
    -68.          216.335      180.876       9.65      249.822     -15.57       34.473
    -62.          220.408      187.532      10.47      249.081     -13.03       30.774
    -58.          224.892      194.728      11.28      249.355     -11.57       27.313
    -52.          229.512      202.245      11.94      250.192     -10.44       23.974
    -47.          234.047      209.881      12.39      251.286      -9.18       20.702
    -43.          238.337      217.462      12.59      252.484      -7.78       17.511
    -37.          242.266      224.866      12.45      253.721      -6.42       14.428
    -32.          245.763      231.936      11.53      254.927      -5.43       11.495
    -28.          248.785      238.399      10.44      255.965      -4.23        8.783
    -23.          251.310      244.023       8.07      256.755      -2.68        6.366
    -18.          253.329      248.443       6.98      257.270       0.04        4.413
    -13.          254.838      251.727       7.51      257.517       2.32        2.895
     -7.          255.839      254.012      10.12      257.478       5.30        1.733
     -2.          256.335      255.486      14.64      257.041       9.57        0.777
      2.          256.323      255.691      -9.40      257.075     -13.74        0.692
      7.          255.802      253.713      -5.77      257.655      -7.31        1.971
     12.          254.768      250.441      -7.74      258.158      -2.58        3.859
     17.          253.210      245.744     -11.25      258.664       2.52        6.460
     23.          251.125      239.767     -14.65      259.169       8.26        9.701
     28.          248.520      233.036     -16.11      259.198       9.68       13.081
     32.          245.410      226.011     -16.31      258.666       9.65       16.328
     38.          241.830      218.816     -16.16      257.830      10.90       19.507
     42.          237.832      211.529     -15.78      256.679      11.70       22.575
     47.          233.502      204.263     -15.11      255.263      12.15       25.500
     52.          228.963      197.175     -14.30      253.747      12.79       28.286
     58.          224.381      190.451     -13.29      252.284      13.75       30.916
     63.          219.973      184.305     -11.95      250.945      14.61       33.320
     68.          216.008      178.894     -10.19      249.825      15.32       35.466
     72.          212.743      174.308      -8.07      249.110      16.04       37.401
     78.          210.301      170.598      -5.70      248.885      16.31       39.143
     82.          208.781      167.832      -3.46      248.865      16.31       40.516
     88.          208.248      166.762      -3.26      248.872      16.25       41.055

ICE LINES (Tave = 263K)
   planet is an ice-ball.

CO2 CONDENSATION
  planet average co2 ice cloud coverage = 0.062
  atmospheric CO2 % loss to surface =  0.02

GEOGRAPHIC DATA
planet ocean fraction: 0.7
coast latitude:   0.0
geography: 1
number of belts: 36
  latitude of belt center  belt ocean fraction
           -87.5                   0.000
           -82.5                   0.000
           -77.5                   0.107
           -72.5                   0.386
           -67.5                   0.795
           -62.5                   0.997
           -57.5                   0.999
           -52.5                   0.985
           -47.5                   0.975
           -42.5                   0.964
           -37.5                   0.934
           -32.5                   0.842
           -27.5                   0.784
           -22.5                   0.754
           -17.5                   0.764
           -12.5                   0.796
            -7.5                   0.769
            -2.5                   0.759
             2.5                   1.000
             7.5                   0.852
            12.5                   0.771
            17.5                   0.655
            22.5                   0.287
            27.5                   0.312
            32.5                   0.450
            37.5                   0.407
            42.5                   0.438
            47.5                   0.512
            52.5                   0.568
            57.5                   0.577
            62.5                   0.596
            67.5                   0.652
            72.5                   0.708
            77.5                   0.765
            82.5                   0.757
            87.5                   0.786
