
OBLIQUITY: 23.50 degrees


**LATITUDE GRID DATA**
          x      dx    latitude(rad)  latitude(deg)
    0  -1.000   0.001     -1.571        -90.0
    1  -0.999   0.008     -1.527        -87.5
    2  -0.991   0.015     -1.440        -82.5
    3  -0.976   0.023     -1.353        -77.5
    4  -0.954   0.030     -1.265        -72.5
    5  -0.924   0.037     -1.178        -67.5
    6  -0.887   0.044     -1.091        -62.5
    7  -0.843   0.050     -1.004        -57.5
    8  -0.793   0.056     -0.916        -52.5
    9  -0.737   0.062     -0.829        -47.5
   10  -0.676   0.067     -0.742        -42.5
   11  -0.609   0.071     -0.654        -37.5
   12  -0.537   0.076     -0.567        -32.5
   13  -0.462   0.079     -0.480        -27.5
   14  -0.383   0.082     -0.393        -22.5
   15  -0.301   0.084     -0.305        -17.5
   16  -0.216   0.086     -0.218        -12.5
   17  -0.131   0.087     -0.131         -7.5
   18  -0.044   0.087     -0.044         -2.5
   19   0.044   0.087      0.044          2.5
   20   0.131   0.086      0.131          7.5
   21   0.216   0.084      0.218         12.5
   22   0.301   0.082      0.305         17.5
   23   0.383   0.079      0.393         22.5
   24   0.462   0.076      0.480         27.5
   25   0.537   0.071      0.567         32.5
   26   0.609   0.067      0.654         37.5
   27   0.676   0.062      0.742         42.5
   28   0.737   0.056      0.829         47.5
   29   0.793   0.050      0.916         52.5
   30   0.843   0.044      1.004         57.5
   31   0.887   0.037      1.091         62.5
   32   0.924   0.030      1.178         67.5
   33   0.954   0.023      1.265         72.5
   34   0.976   0.015      1.353         77.5
   35   0.991   0.008      1.440         82.5
   36   0.999   0.001      1.527         87.5
   37   1.000   0.000      1.571         90.0

SUMMARY
   planet average temperature = 218.514 Kelvin
   planet average albedo =   0.475
   planet average insolation = 141.644 Watts/m^2
   planet average outgoing infrared =  77.196 Watts/m^2
   seasonal-average weathering rate =  1.94828E-19 g/year
   co2 partial pressure =  8.87907E-01 bars
   surface water vapor % (by volume) =   0.000
   total surface pressure =  1.88791E+00 bars
   thermal diffusion coefficient (D) =  2.57422E-02 Watts/m^2 K
   convergence to final temperature profile in  5.68166E+08 seconds
   calculation completed after  31 orbits

ZONAL STATISTICS
 latitude(deg)  ave temp(K)  min temp(K)  @dec(deg)  max temp(K)  @dec(deg)  seas.amp(K)

OUTPUT FILES
    -88.          187.136      150.000      -3.16      217.479     -17.56       33.740
    -82.          187.926      150.000      -2.70      216.831     -17.52       33.416
    -77.          189.624      150.000      -2.12      215.016     -17.06       32.508
    -72.          192.294      162.455      -1.66      212.579     -15.66       25.062
    -68.          194.794      172.420      -1.46      210.923     -12.74       19.252
    -62.          197.254      179.723      -1.27      210.965     -10.13       15.621
    -58.          199.994      186.037      -1.07      212.702      -8.43       13.333
    -52.          203.533      192.534      17.31      215.885      -7.25       11.676
    -47.          207.982      195.570       7.83      220.425      -6.81       12.427
    -43.          212.585      200.635       6.39      224.297      -6.18       11.831
    -37.          216.997      206.062       6.52      227.670      -5.73       10.804
    -32.          221.009      211.178       7.71      230.541      -5.73        9.681
    -28.          224.505      215.860       8.82      232.760      -5.54        8.450
    -23.          227.432      220.120       9.85      234.286      -4.97        7.083
    -18.          229.768      223.888      10.69      235.134      -3.68        5.623
    -13.          231.518      227.145      11.73      235.370      -1.33        4.112
     -7.          232.678      229.820      13.48      235.078       2.68        2.629
     -2.          233.251      231.862      16.17      234.360       9.45        1.249
      2.          233.247      232.009     -15.10      234.362     -10.96        1.176
      7.          232.665      229.835     -12.40      235.145      -3.48        2.655
     12.          231.490      226.824     -11.08      235.680       1.09        4.428
     17.          229.722      222.974     -10.84      235.885       4.28        6.455
     23.          227.362      218.376     -11.48      235.690       7.15        8.657
     28.          224.418      213.418     -10.72      234.794       7.96       10.688
     32.          220.935      208.176      -9.35      233.146       7.96       12.485
     38.          216.988      202.586      -8.98      230.891       8.45       14.153
     42.          212.741      197.201      -9.29      227.941       8.76       15.370
     47.          208.461      193.152      -8.86      224.226       9.00       15.537
     52.          204.621      192.551     -13.40      219.650       9.19       13.549
     58.          201.976      192.434     -14.58      216.015      10.27       11.790
     63.          198.547      182.642      -2.25      213.320      11.62       15.339
     68.          195.764      175.554      -2.05      211.528      12.92       17.987
     72.          193.870      170.476      -1.85      210.641      14.23       20.082
     78.          192.548      166.664      -1.66      210.521      14.91       21.929
     82.          191.614      164.066      -1.33      210.679      15.02       23.306
     88.          191.283      163.027      -1.14      210.758      14.96       23.865

ICE LINES (Tave = 263K)
   planet is an ice-ball.

CO2 CONDENSATION
  planet average co2 ice cloud coverage = 0.000
  atmospheric CO2 % loss to surface =  1.177

GEOGRAPHIC DATA
planet ocean fraction: 0.7
coast latitude:   0.0
geography: 1
number of belts: 36
  latitude of belt center  belt ocean fraction
           -87.5                   0.000
           -82.5                   0.000
           -77.5                   0.107
           -72.5                   0.386
           -67.5                   0.795
           -62.5                   0.997
           -57.5                   0.999
           -52.5                   0.985
           -47.5                   0.975
           -42.5                   0.964
           -37.5                   0.934
           -32.5                   0.842
           -27.5                   0.784
           -22.5                   0.754
           -17.5                   0.764
           -12.5                   0.796
            -7.5                   0.769
            -2.5                   0.759
             2.5                   1.000
             7.5                   0.852
            12.5                   0.771
            17.5                   0.655
            22.5                   0.287
            27.5                   0.312
            32.5                   0.450
            37.5                   0.407
            42.5                   0.438
            47.5                   0.512
            52.5                   0.568
            57.5                   0.577
            62.5                   0.596
            67.5                   0.652
            72.5                   0.708
            77.5                   0.765
            82.5                   0.757
            87.5                   0.786
