
OBLIQUITY: 23.50 degrees


**LATITUDE GRID DATA**
          x      dx    latitude(rad)  latitude(deg)
    0  -1.000   0.001     -1.571        -90.0
    1  -0.999   0.008     -1.527        -87.5
    2  -0.991   0.015     -1.440        -82.5
    3  -0.976   0.023     -1.353        -77.5
    4  -0.954   0.030     -1.265        -72.5
    5  -0.924   0.037     -1.178        -67.5
    6  -0.887   0.044     -1.091        -62.5
    7  -0.843   0.050     -1.004        -57.5
    8  -0.793   0.056     -0.916        -52.5
    9  -0.737   0.062     -0.829        -47.5
   10  -0.676   0.067     -0.742        -42.5
   11  -0.609   0.071     -0.654        -37.5
   12  -0.537   0.076     -0.567        -32.5
   13  -0.462   0.079     -0.480        -27.5
   14  -0.383   0.082     -0.393        -22.5
   15  -0.301   0.084     -0.305        -17.5
   16  -0.216   0.086     -0.218        -12.5
   17  -0.131   0.087     -0.131         -7.5
   18  -0.044   0.087     -0.044         -2.5
   19   0.044   0.087      0.044          2.5
   20   0.131   0.086      0.131          7.5
   21   0.216   0.084      0.218         12.5
   22   0.301   0.082      0.305         17.5
   23   0.383   0.079      0.393         22.5
   24   0.462   0.076      0.480         27.5
   25   0.537   0.071      0.567         32.5
   26   0.609   0.067      0.654         37.5
   27   0.676   0.062      0.742         42.5
   28   0.737   0.056      0.829         47.5
   29   0.793   0.050      0.916         52.5
   30   0.843   0.044      1.004         57.5
   31   0.887   0.037      1.091         62.5
   32   0.924   0.030      1.178         67.5
   33   0.954   0.023      1.265         72.5
   34   0.976   0.015      1.353         77.5
   35   0.991   0.008      1.440         82.5
   36   0.999   0.001      1.527         87.5
   37   1.000   0.000      1.571         90.0

SUMMARY
   planet average temperature = 238.856 Kelvin
   planet average albedo =   0.463
   planet average insolation = 181.530 Watts/m^2
   planet average outgoing infrared =  99.381 Watts/m^2
   seasonal-average weathering rate =  1.94829E-19 g/year
   co2 partial pressure =  8.94591E-01 bars
   surface water vapor % (by volume) =   0.000
   total surface pressure =  1.89459E+00 bars
   thermal diffusion coefficient (D) =  7.73467E-02 Watts/m^2 K
   convergence to final temperature profile in  1.41523E+08 seconds
   calculation completed after  10 orbits

ZONAL STATISTICS
 latitude(deg)  ave temp(K)  min temp(K)  max temp(K)  @dec(deg)  seas.amp(K)

OUTPUT FILES
    -88.          207.742      192.219     232.49      -15.957      20.14
    -82.          208.066      192.469     232.32      -15.778      19.92
    -77.          208.907      192.553     231.94      -15.046      19.69
    -72.          210.545      192.759     231.92      -13.248      19.58
    -68.          213.446      195.553     232.97      -10.986      18.71
    -62.          217.071      200.209     234.59       -9.479      17.19
    -58.          221.185      205.785     236.63       -9.040      15.42
    -52.          225.550      211.757     238.69       -9.113      13.47
    -47.          229.971      217.858     240.83        0.079      11.49
    -43.          234.248      223.955     242.85        0.079       9.45
    -37.          238.268      229.948     244.92        0.079       7.48
    -32.          241.941      235.721     247.02        0.079       5.65
    -28.          245.211      241.070     249.06        0.552       3.99
    -23.          248.035      245.344     250.90        1.420       2.78
    -18.          250.375      248.639     252.46        2.756       1.91
    -13.          252.186      251.107     253.66        4.628       1.27
     -7.          253.421      252.830     254.43        6.854       0.80
     -2.          254.066      253.730     254.69       10.469       0.48
      2.          254.113      253.464     254.39       17.426       0.46
      7.          253.416      252.257     254.11       -6.730       0.92
     12.          252.071      249.998     253.51       -5.198       1.75
     17.          250.118      246.480     252.77       -1.842       3.15
     23.          247.611      241.771     251.99        3.588       5.11
     28.          244.691      236.392     250.80        4.445       7.20
     32.          241.383      230.758     249.18        4.056       9.21
     38.          237.687      224.940     247.37        5.527      11.21
     42.          233.653      219.036     245.36        6.598      13.16
     47.          229.353      213.137     243.17        7.506      15.02
     52.          224.894      207.368     240.87        8.772      16.75
     58.          220.418      201.901     238.47       11.082      18.29
     63.          216.123      197.053     235.55       11.082      19.25
     68.          212.244      193.363     232.21       10.799      19.42
     72.          209.473      191.776     229.42       10.941      18.82
     78.          207.728      189.743     227.45       11.642      18.85
     82.          206.710      186.914     226.41       11.919      19.75
     88.          206.300      184.751     226.08       11.919      20.66

ICE LINES (Tave = 263K)
   planet is an ice-ball.

CO2 CONDENSATION
  planet average co2 ice cloud coverage = 0.490
  atmospheric CO2 % loss to surface = 10.54

GEOGRAPHIC DATA
planet ocean fraction: 0.7
coast latitude:   0.0
geography: 1
number of belts: 36
  latitude of belt center  belt ocean fraction
           -87.5                   0.000
           -82.5                   0.000
           -77.5                   0.107
           -72.5                   0.386
           -67.5                   0.795
           -62.5                   0.997
           -57.5                   0.999
           -52.5                   0.985
           -47.5                   0.975
           -42.5                   0.964
           -37.5                   0.934
           -32.5                   0.842
           -27.5                   0.784
           -22.5                   0.754
           -17.5                   0.764
           -12.5                   0.796
            -7.5                   0.769
            -2.5                   0.759
             2.5                   1.000
             7.5                   0.852
            12.5                   0.771
            17.5                   0.655
            22.5                   0.287
            27.5                   0.312
            32.5                   0.450
            37.5                   0.407
            42.5                   0.438
            47.5                   0.512
            52.5                   0.568
            57.5                   0.577
            62.5                   0.596
            67.5                   0.652
            72.5                   0.708
            77.5                   0.765
            82.5                   0.757
            87.5                   0.786
