
OBLIQUITY: 23.50 degrees


**LATITUDE GRID DATA**
          x      dx    latitude(rad)  latitude(deg)
    0  -1.000   0.001     -1.571        -90.0
    1  -0.999   0.008     -1.527        -87.5
    2  -0.991   0.015     -1.440        -82.5
    3  -0.976   0.023     -1.353        -77.5
    4  -0.954   0.030     -1.265        -72.5
    5  -0.924   0.037     -1.178        -67.5
    6  -0.887   0.044     -1.091        -62.5
    7  -0.843   0.050     -1.004        -57.5
    8  -0.793   0.056     -0.916        -52.5
    9  -0.737   0.062     -0.829        -47.5
   10  -0.676   0.067     -0.742        -42.5
   11  -0.609   0.071     -0.654        -37.5
   12  -0.537   0.076     -0.567        -32.5
   13  -0.462   0.079     -0.480        -27.5
   14  -0.383   0.082     -0.393        -22.5
   15  -0.301   0.084     -0.305        -17.5
   16  -0.216   0.086     -0.218        -12.5
   17  -0.131   0.087     -0.131         -7.5
   18  -0.044   0.087     -0.044         -2.5
   19   0.044   0.087      0.044          2.5
   20   0.131   0.086      0.131          7.5
   21   0.216   0.084      0.218         12.5
   22   0.301   0.082      0.305         17.5
   23   0.383   0.079      0.393         22.5
   24   0.462   0.076      0.480         27.5
   25   0.537   0.071      0.567         32.5
   26   0.609   0.067      0.654         37.5
   27   0.676   0.062      0.742         42.5
   28   0.737   0.056      0.829         47.5
   29   0.793   0.050      0.916         52.5
   30   0.843   0.044      1.004         57.5
   31   0.887   0.037      1.091         62.5
   32   0.924   0.030      1.178         67.5
   33   0.954   0.023      1.265         72.5
   34   0.976   0.015      1.353         77.5
   35   0.991   0.008      1.440         82.5
   36   0.999   0.001      1.527         87.5
   37   1.000   0.000      1.571         90.0

SUMMARY
   planet average temperature = 219.784 Kelvin
   planet average albedo =   0.610
   planet average insolation = 319.545 Watts/m^2
   planet average outgoing infrared = 126.087 Watts/m^2
   seasonal-average weathering rate =  1.94826E-19 g/year
   co2 partial pressure =  9.99968E-05 bars
   surface water vapor % (by volume) =   0.000
   total surface pressure =  1.00006E+00 bars
   thermal diffusion coefficient (D) =  2.50376E-02 Watts/m^2 K
   convergence to final temperature profile in  1.57810E+08 seconds
   calculation completed after   6 orbits

ZONAL STATISTICS
 latitude(deg)  ave temp(K)  min temp(K)  @dec(deg)  max temp(K)  @dec(deg)  seas.amp(K)

OUTPUT FILES
    -88.          180.757      150.000     -12.95      238.772     -20.60       44.386
    -82.          181.148      150.000     -12.82      238.124     -20.50       44.062
    -77.          182.389      150.000     -11.62      236.360     -20.11       43.180
    -72.          184.771      150.000      -7.87      234.015     -19.28       42.007
    -68.          188.825      150.000       0.99      232.535     -17.71       41.268
    -62.          195.633      161.724       9.03      232.882     -16.71       35.579
    -58.          201.802      171.253      11.14      234.425     -16.57       31.586
    -52.          207.367      179.058      13.22      236.407     -16.88       28.674
    -47.          212.391      186.204      14.45      238.232     -17.33       26.014
    -43.          216.896      192.950      15.48      239.418     -16.83       23.234
    -37.          220.883      199.272      16.37      240.189     -16.22       20.458
    -32.          224.347      205.113      17.27      240.688     -16.02       17.787
    -28.          227.299      210.586      18.02      240.841     -15.78       15.127
    -23.          229.744      215.653      18.61      240.596     -15.27       12.471
    -18.          231.687      220.354      19.04      239.927     -14.07        9.787
    -13.          233.126      224.572      19.40      238.845     -12.15        7.136
     -7.          234.083      228.352      19.85      237.476      -4.04        4.562
     -2.          234.550      231.647      20.40      236.375       5.84        2.364
      2.          234.546      231.647     -20.02      236.422      -6.22        2.387
      7.          234.069      228.243     -19.67      237.529       4.15        4.643
     12.          233.096      224.199     -19.54      239.013      12.49        7.407
     17.          231.624      219.533     -19.58      240.342      15.38       10.404
     23.          229.626      214.203     -19.87      241.436      18.17       13.617
     28.          227.114      208.534     -19.54      242.028      18.53       16.747
     32.          224.076      202.477     -18.88      242.091      18.17       19.807
     38.          220.517      195.984     -18.31      241.845      18.51       22.930
     42.          216.437      189.174     -17.54      241.196      18.58       26.011
     47.          211.846      182.112     -16.54      240.151      18.51       29.019
     52.          206.770      174.912     -15.30      238.844      19.00       31.966
     58.          201.223      167.537     -12.89      236.894      18.61       34.678
     63.          195.202      158.629      -9.11      234.638      18.17       38.004
     68.          188.886      150.000      -0.17      232.470      17.84       41.235
     72.          185.016      150.000       0.03      230.912      17.81       40.456
     78.          182.510      150.000       0.03      230.156      17.35       40.078
     82.          181.094      150.000       0.03      229.806      17.05       39.903
     88.          180.628      150.000       0.03      229.709      16.91       39.855

ICE LINES (Tave = 263K)
   planet is an ice-ball.

CO2 CONDENSATION
  planet average co2 ice cloud coverage = 0.000
  atmospheric CO2 % loss to surface =  0.00

GEOGRAPHIC DATA
planet ocean fraction: 0.7
coast latitude:   0.0
geography: 1
number of belts: 36
  latitude of belt center  belt ocean fraction
           -87.5                   0.000
           -82.5                   0.000
           -77.5                   0.107
           -72.5                   0.386
           -67.5                   0.795
           -62.5                   0.997
           -57.5                   0.999
           -52.5                   0.985
           -47.5                   0.975
           -42.5                   0.964
           -37.5                   0.934
           -32.5                   0.842
           -27.5                   0.784
           -22.5                   0.754
           -17.5                   0.764
           -12.5                   0.796
            -7.5                   0.769
            -2.5                   0.759
             2.5                   1.000
             7.5                   0.852
            12.5                   0.771
            17.5                   0.655
            22.5                   0.287
            27.5                   0.312
            32.5                   0.450
            37.5                   0.407
            42.5                   0.438
            47.5                   0.512
            52.5                   0.568
            57.5                   0.577
            62.5                   0.596
            67.5                   0.652
            72.5                   0.708
            77.5                   0.765
            82.5                   0.757
            87.5                   0.786
