
OBLIQUITY: 23.50 degrees


**LATITUDE GRID DATA**
          x      dx    latitude(rad)  latitude(deg)
    0  -1.000   0.001     -1.571        -90.0
    1  -0.999   0.008     -1.527        -87.5
    2  -0.991   0.015     -1.440        -82.5
    3  -0.976   0.023     -1.353        -77.5
    4  -0.954   0.030     -1.265        -72.5
    5  -0.924   0.037     -1.178        -67.5
    6  -0.887   0.044     -1.091        -62.5
    7  -0.843   0.050     -1.004        -57.5
    8  -0.793   0.056     -0.916        -52.5
    9  -0.737   0.062     -0.829        -47.5
   10  -0.676   0.067     -0.742        -42.5
   11  -0.609   0.071     -0.654        -37.5
   12  -0.537   0.076     -0.567        -32.5
   13  -0.462   0.079     -0.480        -27.5
   14  -0.383   0.082     -0.393        -22.5
   15  -0.301   0.084     -0.305        -17.5
   16  -0.216   0.086     -0.218        -12.5
   17  -0.131   0.087     -0.131         -7.5
   18  -0.044   0.087     -0.044         -2.5
   19   0.044   0.087      0.044          2.5
   20   0.131   0.086      0.131          7.5
   21   0.216   0.084      0.218         12.5
   22   0.301   0.082      0.305         17.5
   23   0.383   0.079      0.393         22.5
   24   0.462   0.076      0.480         27.5
   25   0.537   0.071      0.567         32.5
   26   0.609   0.067      0.654         37.5
   27   0.676   0.062      0.742         42.5
   28   0.737   0.056      0.829         47.5
   29   0.793   0.050      0.916         52.5
   30   0.843   0.044      1.004         57.5
   31   0.887   0.037      1.091         62.5
   32   0.924   0.030      1.178         67.5
   33   0.954   0.023      1.265         72.5
   34   0.976   0.015      1.353         77.5
   35   0.991   0.008      1.440         82.5
   36   0.999   0.001      1.527         87.5
   37   1.000   0.000      1.571         90.0

SUMMARY
   planet average temperature = 239.310 Kelvin
   planet average albedo =   0.461
   planet average insolation = 181.530 Watts/m^2
   planet average outgoing infrared =  98.242 Watts/m^2
   seasonal-average weathering rate =  1.94829E-19 g/year
   co2 partial pressure =  9.97155E-01 bars
   surface water vapor % (by volume) =   0.000
   total surface pressure =  1.99716E+00 bars
   thermal diffusion coefficient (D) =  7.73467E-02 Watts/m^2 K
   convergence to final temperature profile in  1.41523E+08 seconds
   calculation completed after  10 orbits

ZONAL STATISTICS
 latitude(deg)  ave temp(K)  min temp(K)  @dec(deg)  max temp(K)  @dec(deg)  seas.amp(K)

OUTPUT FILES
    -88.          206.835      181.267      -0.98      233.624     -15.84       26.178
    -82.          207.349      182.482      -0.74      233.439     -15.66       25.478
    -77.          208.658      185.497      -0.66      233.036     -14.92       23.770
    -72.          210.757      189.706      -0.42      232.995     -12.98       21.645
    -68.          213.721      194.634       1.94      234.021     -10.77       19.693
    -62.          217.403      200.116       3.04      235.600      -9.26       17.742
    -58.          221.564      205.994       3.98      237.518      -8.97       15.762
    -52.          225.957      212.081       4.91      239.345      -7.40       13.632
    -47.          230.378      218.241       5.76      241.111      -4.96       11.435
    -43.          234.662      224.380       6.29      242.981      -2.93        9.300
    -37.          238.686      230.405       6.37      244.975      -1.20        7.285
    -32.          242.359      236.184       5.83      247.054      -0.10        5.435
    -28.          245.622      241.511       2.18      249.080       0.06        3.784
    -23.          248.433      245.734       1.78      250.920       0.06        2.593
    -18.          250.754      248.969       3.59      252.468       3.69        1.750
    -13.          252.546      251.391       5.53      253.670       5.86        1.139
     -7.          253.769      253.078       8.48      254.448       8.50        0.685
     -2.          254.401      254.076      12.87      254.727      12.42        0.326
      2.          254.432      254.229     -12.58      254.683     -14.80        0.227
      7.          253.763      253.172       0.08      254.446     -10.78        0.637
     12.          252.473      251.092       0.08      253.867      -8.08        1.387
     17.          250.611      247.817      -2.23      253.159      -4.04        2.671
     23.          248.225      243.297      -6.49      252.397       1.94        4.550
     28.          245.392      238.059      -8.38      251.219       3.04        6.580
     32.          242.120      232.449      -8.60      249.594       2.88        8.572
     38.          238.431      226.572      -8.67      247.770       4.52       10.599
     42.          234.382      220.565      -8.30      245.746       5.76       12.591
     47.          230.055      214.550      -7.55      243.543       6.75       14.496
     52.          225.564      208.666      -6.65      241.245       8.18       16.290
     58.          221.058      203.071      -5.73      238.893      10.73       17.911
     63.          216.738      198.048      -4.80      236.019      10.80       18.985
     68.          212.837      193.889      -1.44      232.711      10.59       19.411
     72.          209.984      190.526       0.06      229.935      10.80       19.705
     78.          208.023      187.787       0.06      227.970      11.43       20.091
     82.          206.826      185.838       0.06      226.929      11.78       20.545
     88.          206.354      184.751       0.08      226.600      11.78       20.924

ICE LINES (Tave = 263K)
   planet is an ice-ball.

CO2 CONDENSATION
  planet average co2 ice cloud coverage = 0.500
  atmospheric CO2 % loss to surface =  0.28

GEOGRAPHIC DATA
planet ocean fraction: 0.7
coast latitude:   0.0
geography: 1
number of belts: 36
  latitude of belt center  belt ocean fraction
           -87.5                   0.000
           -82.5                   0.000
           -77.5                   0.107
           -72.5                   0.386
           -67.5                   0.795
           -62.5                   0.997
           -57.5                   0.999
           -52.5                   0.985
           -47.5                   0.975
           -42.5                   0.964
           -37.5                   0.934
           -32.5                   0.842
           -27.5                   0.784
           -22.5                   0.754
           -17.5                   0.764
           -12.5                   0.796
            -7.5                   0.769
            -2.5                   0.759
             2.5                   1.000
             7.5                   0.852
            12.5                   0.771
            17.5                   0.655
            22.5                   0.287
            27.5                   0.312
            32.5                   0.450
            37.5                   0.407
            42.5                   0.438
            47.5                   0.512
            52.5                   0.568
            57.5                   0.577
            62.5                   0.596
            67.5                   0.652
            72.5                   0.708
            77.5                   0.765
            82.5                   0.757
            87.5                   0.786
