
OBLIQUITY: 90.00 degrees


**LATITUDE GRID DATA**
          x      dx    latitude(rad)  latitude(deg)
    0  -1.000   0.001     -1.571        -90.0
    1  -0.999   0.008     -1.527        -87.5
    2  -0.991   0.015     -1.440        -82.5
    3  -0.976   0.023     -1.353        -77.5
    4  -0.954   0.030     -1.265        -72.5
    5  -0.924   0.037     -1.178        -67.5
    6  -0.887   0.044     -1.091        -62.5
    7  -0.843   0.050     -1.004        -57.5
    8  -0.793   0.056     -0.916        -52.5
    9  -0.737   0.062     -0.829        -47.5
   10  -0.676   0.067     -0.742        -42.5
   11  -0.609   0.071     -0.654        -37.5
   12  -0.537   0.076     -0.567        -32.5
   13  -0.462   0.079     -0.480        -27.5
   14  -0.383   0.082     -0.393        -22.5
   15  -0.301   0.084     -0.305        -17.5
   16  -0.216   0.086     -0.218        -12.5
   17  -0.131   0.087     -0.131         -7.5
   18  -0.044   0.087     -0.044         -2.5
   19   0.044   0.087      0.044          2.5
   20   0.131   0.086      0.131          7.5
   21   0.216   0.084      0.218         12.5
   22   0.301   0.082      0.305         17.5
   23   0.383   0.079      0.393         22.5
   24   0.462   0.076      0.480         27.5
   25   0.537   0.071      0.567         32.5
   26   0.609   0.067      0.654         37.5
   27   0.676   0.062      0.742         42.5
   28   0.737   0.056      0.829         47.5
   29   0.793   0.050      0.916         52.5
   30   0.843   0.044      1.004         57.5
   31   0.887   0.037      1.091         62.5
   32   0.924   0.030      1.178         67.5
   33   0.954   0.023      1.265         72.5
   34   0.976   0.015      1.353         77.5
   35   0.991   0.008      1.440         82.5
   36   0.999   0.001      1.527         87.5
   37   1.000   0.000      1.571         90.0

SUMMARY
   planet average temperature = 290.563 Kelvin
   planet average albedo =   0.286
   planet average insolation = 340.080 Watts/m^2
   planet average outgoing infrared = 242.623 Watts/m^2
   seasonal-average weathering rate =  2.86938E+15 g/year
   co2 partial pressure =  3.29984E-04 bars
   surface water vapor % (by volume) =   2.044
   total surface pressure =  1.02120E+00 bars
   thermal diffusion coefficient (D) =  6.41671E-01 Watts/m^2 K
   convergence to final temperature profile in  2.84057E+08 seconds
   calculation completed after  10 orbits

ZONAL STATISTICS
 latitude(deg)  ave temp(K)  min temp(K)  @dec(deg)  max temp(K)  @dec(deg)  seas.amp(K)

OUTPUT FILES
    -88.          310.180      276.387       2.04      361.542     -63.66       42.578
    -82.          309.848      277.156       2.04      358.745     -62.03       40.795
    -77.          308.886      279.246      -0.21      351.098     -56.23       35.926
    -72.          307.412      282.061      -6.19      340.727     -45.77       29.333
    -68.          305.544      284.789     -14.16      330.228     -32.50       22.719
    -62.          303.393      286.702     -19.40      321.417     -20.41       17.357
    -58.          301.067      287.563     -19.69      314.682     -12.29       13.560
    -52.          298.673      287.465     -16.33      309.526      -9.09       11.030
    -47.          296.289      286.633     -11.01      305.543      -8.69        9.455
    -43.          293.964      285.323      -4.62      302.308      -7.99        8.492
    -37.          291.732      283.769       2.63      299.460      -5.70        7.846
    -32.          289.629      282.173      10.33      296.817      -2.11        7.322
    -28.          287.699      280.754      17.51      294.292       0.08        6.769
    -23.          285.990      279.663      23.70      291.863       9.12        6.100
    -18.          284.546      278.965      29.49      289.682      16.23        5.359
    -13.          283.401      278.655      35.17      287.747      23.40        4.546
     -7.          282.585      278.704      41.89      286.054      30.05        3.675
     -2.          282.134      279.146      48.89      284.589      37.95        2.721
      2.          282.075      279.940     -43.94      284.795     -46.01        2.427
      7.          282.363      278.858     -35.33      286.219     -35.70        3.681
     12.          282.991      277.631     -30.28      288.293     -24.75        5.331
     17.          283.928      276.359     -29.07      290.949     -12.98        7.295
     23.          285.152      275.315     -30.08      294.125      -0.90        9.405
     28.          286.689      274.911     -26.15      297.533       5.75       11.311
     32.          288.494      275.123     -19.61      300.959      10.13       12.918
     38.          290.505      275.801     -13.79      304.425      15.47       14.312
     42.          292.691      276.927      -7.49      307.913      19.35       15.493
     47.          295.010      278.375      -0.72      311.374      21.96       16.499
     52.          297.383      279.984       5.56      314.725      24.19       17.371
     58.          299.728      281.651      10.41      317.902      26.60       18.126
     63.          301.957      283.335      14.65      320.778      28.72       18.721
     68.          303.983      284.976      18.49      323.161      27.76       19.092
     72.          305.716      286.475      20.45      324.974      26.31       19.249
     78.          307.065      287.747      21.53      326.261      25.15       19.257
     82.          307.938      288.586      21.93      327.076      24.86       19.245
     88.          308.237      288.886      22.12      327.353      24.67       19.233

ICE LINES (Tave = 263K)
   planet is ice-free.

CO2 CONDENSATION
  planet average co2 ice cloud coverage = 0.000
  atmospheric CO2 % loss to surface =  0.00

GEOGRAPHIC DATA
planet ocean fraction: 0.7
coast latitude:   0.0
geography: 1
number of belts: 36
  latitude of belt center  belt ocean fraction
           -87.5                   0.000
           -82.5                   0.000
           -77.5                   0.107
           -72.5                   0.386
           -67.5                   0.795
           -62.5                   0.997
           -57.5                   0.999
           -52.5                   0.985
           -47.5                   0.975
           -42.5                   0.964
           -37.5                   0.934
           -32.5                   0.842
           -27.5                   0.784
           -22.5                   0.754
           -17.5                   0.764
           -12.5                   0.796
            -7.5                   0.769
            -2.5                   0.759
             2.5                   1.000
             7.5                   0.852
            12.5                   0.771
            17.5                   0.655
            22.5                   0.287
            27.5                   0.312
            32.5                   0.450
            37.5                   0.407
            42.5                   0.438
            47.5                   0.512
            52.5                   0.568
            57.5                   0.577
            62.5                   0.596
            67.5                   0.652
            72.5                   0.708
            77.5                   0.765
            82.5                   0.757
            87.5                   0.786
