
OBLIQUITY:  0.00 degrees


**LATITUDE GRID DATA**
          x      dx    latitude(rad)  latitude(deg)
    0  -1.000   0.001     -1.571        -90.0
    1  -0.999   0.008     -1.527        -87.5
    2  -0.991   0.015     -1.440        -82.5
    3  -0.976   0.023     -1.353        -77.5
    4  -0.954   0.030     -1.265        -72.5
    5  -0.924   0.037     -1.178        -67.5
    6  -0.887   0.044     -1.091        -62.5
    7  -0.843   0.050     -1.004        -57.5
    8  -0.793   0.056     -0.916        -52.5
    9  -0.737   0.062     -0.829        -47.5
   10  -0.676   0.067     -0.742        -42.5
   11  -0.609   0.071     -0.654        -37.5
   12  -0.537   0.076     -0.567        -32.5
   13  -0.462   0.079     -0.480        -27.5
   14  -0.383   0.082     -0.393        -22.5
   15  -0.301   0.084     -0.305        -17.5
   16  -0.216   0.086     -0.218        -12.5
   17  -0.131   0.087     -0.131         -7.5
   18  -0.044   0.087     -0.044         -2.5
   19   0.044   0.087      0.044          2.5
   20   0.131   0.086      0.131          7.5
   21   0.216   0.084      0.218         12.5
   22   0.301   0.082      0.305         17.5
   23   0.383   0.079      0.393         22.5
   24   0.462   0.076      0.480         27.5
   25   0.537   0.071      0.567         32.5
   26   0.609   0.067      0.654         37.5
   27   0.676   0.062      0.742         42.5
   28   0.737   0.056      0.829         47.5
   29   0.793   0.050      0.916         52.5
   30   0.843   0.044      1.004         57.5
   31   0.887   0.037      1.091         62.5
   32   0.924   0.030      1.178         67.5
   33   0.954   0.023      1.265         72.5
   34   0.976   0.015      1.353         77.5
   35   0.991   0.008      1.440         82.5
   36   0.999   0.001      1.527         87.5
   37   1.000   0.000      1.571         90.0

SUMMARY
   planet average temperature = 283.305 Kelvin
   planet average albedo =   0.310
   planet average insolation = 339.940 Watts/m^2
   planet average outgoing infrared = 234.753 Watts/m^2
   seasonal-average weathering rate =  2.27692E+14 g/year
   co2 partial pressure =  3.29984E-04 bars
   surface water vapor % (by volume) =   1.355
   total surface pressure =  1.01407E+00 bars
   thermal diffusion coefficient (D) =  5.27164E-01 Watts/m^2 K
   convergence to final temperature profile in  3.47181E+08 seconds
   calculation completed after  12 orbits

ZONAL STATISTICS
 latitude(deg)  ave temp(K)  min temp(K)  @dec(deg)  max temp(K)  @dec(deg)  seas.amp(K)

OUTPUT FILES
    -88.          244.395      244.219       0.00      244.602       0.00        0.192
    -82.          245.108      244.934       0.00      245.320       0.00        0.193
    -77.          247.051      246.875       0.00      247.265       0.00        0.195
    -72.          250.015      249.836       0.00      250.226       0.00        0.195
    -68.          253.921      253.745       0.00      254.132       0.00        0.194
    -62.          258.856      258.678       0.00      259.062       0.00        0.192
    -58.          264.863      264.679       0.00      265.068       0.00        0.194
    -52.          270.621      270.439       0.00      270.823       0.00        0.192
    -47.          275.716      275.529       0.00      275.917       0.00        0.194
    -43.          280.375      280.174       0.00      280.585       0.00        0.206
    -37.          284.592      284.373       0.00      284.820       0.00        0.223
    -32.          288.346      288.102       0.00      288.591       0.00        0.245
    -28.          291.629      291.365       0.00      291.896       0.00        0.266
    -23.          294.432      294.152       0.00      294.712       0.00        0.280
    -18.          296.714      296.425       0.00      297.002       0.00        0.289
    -13.          298.436      298.146       0.00      298.728       0.00        0.291
     -7.          299.559      299.269       0.00      299.851       0.00        0.291
     -2.          300.069      299.779       0.00      300.355       0.00        0.288
      2.          299.949      299.656       0.00      300.232       0.00        0.288
      7.          299.162      298.848       0.00      299.464       0.00        0.308
     12.          297.718      297.375       0.00      298.064       0.00        0.345
     17.          295.646      295.262       0.00      296.038       0.00        0.388
     23.          292.984      292.560       0.00      293.414       0.00        0.427
     28.          289.835      289.395       0.00      290.282       0.00        0.444
     32.          286.243      285.804       0.00      286.688       0.00        0.442
     38.          282.181      281.757       0.00      282.614       0.00        0.428
     42.          277.680      277.275       0.00      278.093       0.00        0.409
     47.          272.738      272.343       0.00      273.136       0.00        0.397
     52.          266.962      266.567       0.00      267.369       0.00        0.401
     58.          260.660      260.276       0.00      261.061       0.00        0.393
     63.          255.129      254.783       0.00      255.494       0.00        0.355
     68.          250.437      250.121       0.00      250.775       0.00        0.327
     72.          246.602      246.309       0.00      246.919       0.00        0.305
     78.          243.685      243.408       0.00      243.987       0.00        0.289
     82.          241.797      241.530       0.00      242.089       0.00        0.280
     88.          241.114      240.850       0.00      241.402       0.00        0.276

ICE LINES (Tave = 263K)
  ice-line latitude = -58.9 degrees.
  ice-line latitude =  55.5 degrees.

CO2 CONDENSATION
  planet average co2 ice cloud coverage = 0.000
  atmospheric CO2 % loss to surface =  0.000

GEOGRAPHIC DATA
planet ocean fraction: 0.7
coast latitude:   0.0
geography: 1
number of belts: 36
  latitude of belt center  belt ocean fraction
           -87.5                   0.000
           -82.5                   0.000
           -77.5                   0.107
           -72.5                   0.386
           -67.5                   0.795
           -62.5                   0.997
           -57.5                   0.999
           -52.5                   0.985
           -47.5                   0.975
           -42.5                   0.964
           -37.5                   0.934
           -32.5                   0.842
           -27.5                   0.784
           -22.5                   0.754
           -17.5                   0.764
           -12.5                   0.796
            -7.5                   0.769
            -2.5                   0.759
             2.5                   1.000
             7.5                   0.852
            12.5                   0.771
            17.5                   0.655
            22.5                   0.287
            27.5                   0.312
            32.5                   0.450
            37.5                   0.407
            42.5                   0.438
            47.5                   0.512
            52.5                   0.568
            57.5                   0.577
            62.5                   0.596
            67.5                   0.652
            72.5                   0.708
            77.5                   0.765
            82.5                   0.757
            87.5                   0.786
