
OBLIQUITY: 23.50 degrees


**LATITUDE GRID DATA**
          x      dx    latitude(rad)  latitude(deg)
    0  -1.000   0.001     -1.571        -90.0
    1  -0.999   0.008     -1.527        -87.5
    2  -0.991   0.015     -1.440        -82.5
    3  -0.976   0.023     -1.353        -77.5
    4  -0.954   0.030     -1.265        -72.5
    5  -0.924   0.037     -1.178        -67.5
    6  -0.887   0.044     -1.091        -62.5
    7  -0.843   0.050     -1.004        -57.5
    8  -0.793   0.056     -0.916        -52.5
    9  -0.737   0.062     -0.829        -47.5
   10  -0.676   0.067     -0.742        -42.5
   11  -0.609   0.071     -0.654        -37.5
   12  -0.537   0.076     -0.567        -32.5
   13  -0.462   0.079     -0.480        -27.5
   14  -0.383   0.082     -0.393        -22.5
   15  -0.301   0.084     -0.305        -17.5
   16  -0.216   0.086     -0.218        -12.5
   17  -0.131   0.087     -0.131         -7.5
   18  -0.044   0.087     -0.044         -2.5
   19   0.044   0.087      0.044          2.5
   20   0.131   0.086      0.131          7.5
   21   0.216   0.084      0.218         12.5
   22   0.301   0.082      0.305         17.5
   23   0.383   0.079      0.393         22.5
   24   0.462   0.076      0.480         27.5
   25   0.537   0.071      0.567         32.5
   26   0.609   0.067      0.654         37.5
   27   0.676   0.062      0.742         42.5
   28   0.737   0.056      0.829         47.5
   29   0.793   0.050      0.916         52.5
   30   0.843   0.044      1.004         57.5
   31   0.887   0.037      1.091         62.5
   32   0.924   0.030      1.178         67.5
   33   0.954   0.023      1.265         72.5
   34   0.976   0.015      1.353         77.5
   35   0.991   0.008      1.440         82.5
   36   0.999   0.001      1.527         87.5
   37   1.000   0.000      1.571         90.0

SUMMARY
   planet average temperature = 324.116 Kelvin
   planet average albedo =   0.202
   planet average insolation = 251.812 Watts/m^2
   planet average outgoing infrared = 200.001 Watts/m^2
   seasonal-average weathering rate =  2.11396E+17 g/year
   co2 partial pressure =  9.99637E-01 bars
   surface water vapor % (by volume) =   5.126
   total surface pressure =  2.10769E+00 bars
   thermal diffusion coefficient (D) =  7.17126E-01 Watts/m^2 K
   convergence to final temperature profile in  5.29044E+08 seconds
   calculation completed after  44 orbits

ZONAL STATISTICS
 latitude(deg)  ave temp(K)  min temp(K)  @dec(deg)  max temp(K)  @dec(deg)  seas.amp(K)

OUTPUT FILES
    -88.          306.211      300.966       5.37      313.363     -20.67        6.199
    -82.          306.447      301.456       5.57      313.128     -20.26        5.836
    -77.          307.135      302.885       4.78      312.553     -18.49        4.834
    -72.          308.241      305.005       1.18      312.044     -13.89        3.519
    -68.          309.739      307.477      -3.75      312.215      -5.53        2.369
    -62.          311.589      310.000      -5.93      313.274       0.07        1.637
    -58.          313.709      312.453      -4.25      315.016       0.07        1.282
    -52.          316.010      314.872      -1.85      317.192       0.07        1.160
    -47.          318.406      317.305      -0.34      319.551      -0.54        1.123
    -43.          320.813      319.738       0.57      321.932      -0.23        1.097
    -37.          323.155      322.107       1.38      324.244       0.07        1.069
    -32.          325.365      324.353       2.68      326.414       0.07        1.031
    -28.          327.381      326.440       3.88      328.356       0.07        0.958
    -23.          329.151      328.324       4.78      330.005       0.07        0.840
    -18.          330.626      329.955       5.57      331.322       0.07        0.683
    -13.          331.770      331.272       6.64      332.288       0.07        0.508
     -7.          332.555      332.224       9.22      332.897       0.07        0.337
     -2.          332.961      332.781      13.58      333.126       0.07        0.173
      2.          332.975      332.870       0.10      333.119     -16.70        0.124
      7.          332.604      332.275       0.10      332.955     -11.74        0.340
     12.          331.854      331.216       0.10      332.498      -8.06        0.641
     17.          330.746      329.709       0.10      331.769      -3.65        1.030
     23.          329.304      327.851      -7.57      330.767       1.58        1.458
     28.          327.565      325.751      -6.90      329.384       2.58        1.816
     32.          325.573      323.519       0.10      327.618       1.78        2.049
     38.          323.382      321.184       0.10      325.566       2.18        2.191
     42.          321.054      318.806       0.10      323.282       2.18        2.238
     47.          318.655      316.437       0.10      320.850       1.68        2.206
     52.          316.262      314.115       0.81      318.387       1.58        2.136
     58.          313.955      311.880       1.51      316.012       2.28        2.066
     63.          311.819      309.820       2.22      313.808       3.08        1.994
     68.          309.943      308.022       3.62      311.847       3.78        1.912
     72.          308.410      306.550       5.21      310.223       4.68        1.837
     78.          307.270      305.433       6.67      309.025       6.15        1.796
     82.          306.558      304.702       6.97      308.319       7.70        1.809
     88.          306.314      304.443       6.48      308.086       7.80        1.822

ICE LINES (Tave = 263K)
   planet is ice-free.

CO2 CONDENSATION
  planet average co2 ice cloud coverage = 0.000
  atmospheric CO2 % loss to surface =  0.000

GEOGRAPHIC DATA
planet ocean fraction: 0.7
coast latitude:   0.0
geography: 1
number of belts: 36
  latitude of belt center  belt ocean fraction
           -87.5                   0.000
           -82.5                   0.000
           -77.5                   0.107
           -72.5                   0.386
           -67.5                   0.795
           -62.5                   0.997
           -57.5                   0.999
           -52.5                   0.985
           -47.5                   0.975
           -42.5                   0.964
           -37.5                   0.934
           -32.5                   0.842
           -27.5                   0.784
           -22.5                   0.754
           -17.5                   0.764
           -12.5                   0.796
            -7.5                   0.769
            -2.5                   0.759
             2.5                   1.000
             7.5                   0.852
            12.5                   0.771
            17.5                   0.655
            22.5                   0.287
            27.5                   0.312
            32.5                   0.450
            37.5                   0.407
            42.5                   0.438
            47.5                   0.512
            52.5                   0.568
            57.5                   0.577
            62.5                   0.596
            67.5                   0.652
            72.5                   0.708
            77.5                   0.765
            82.5                   0.757
            87.5                   0.786
