
OBLIQUITY: 23.50 degrees


**LATITUDE GRID DATA**
          x      dx    latitude(rad)  latitude(deg)
    0  -1.000   0.001     -1.571        -90.0
    1  -0.999   0.008     -1.527        -87.5
    2  -0.991   0.015     -1.440        -82.5
    3  -0.976   0.023     -1.353        -77.5
    4  -0.954   0.030     -1.265        -72.5
    5  -0.924   0.037     -1.178        -67.5
    6  -0.887   0.044     -1.091        -62.5
    7  -0.843   0.050     -1.004        -57.5
    8  -0.793   0.056     -0.916        -52.5
    9  -0.737   0.062     -0.829        -47.5
   10  -0.676   0.067     -0.742        -42.5
   11  -0.609   0.071     -0.654        -37.5
   12  -0.537   0.076     -0.567        -32.5
   13  -0.462   0.079     -0.480        -27.5
   14  -0.383   0.082     -0.393        -22.5
   15  -0.301   0.084     -0.305        -17.5
   16  -0.216   0.086     -0.218        -12.5
   17  -0.131   0.087     -0.131         -7.5
   18  -0.044   0.087     -0.044         -2.5
   19   0.044   0.087      0.044          2.5
   20   0.131   0.086      0.131          7.5
   21   0.216   0.084      0.218         12.5
   22   0.301   0.082      0.305         17.5
   23   0.383   0.079      0.393         22.5
   24   0.462   0.076      0.480         27.5
   25   0.537   0.071      0.567         32.5
   26   0.609   0.067      0.654         37.5
   27   0.676   0.062      0.742         42.5
   28   0.737   0.056      0.829         47.5
   29   0.793   0.050      0.916         52.5
   30   0.843   0.044      1.004         57.5
   31   0.887   0.037      1.091         62.5
   32   0.924   0.030      1.178         67.5
   33   0.954   0.023      1.265         72.5
   34   0.976   0.015      1.353         77.5
   35   0.991   0.008      1.440         82.5
   36   0.999   0.001      1.527         87.5
   37   1.000   0.000      1.571         90.0

SUMMARY
   planet average temperature = 274.133 Kelvin
   planet average albedo =   0.421
   planet average insolation = 193.276 Watts/m^2
   planet average outgoing infrared = 112.205 Watts/m^2
   seasonal-average weathering rate =  1.30854E+15 g/year
   co2 partial pressure =  1.50000E+00 bars
   surface water vapor % (by volume) =   0.233
   total surface pressure =  2.50589E+00 bars
   thermal diffusion coefficient (D) =  4.48937E-01 Watts/m^2 K
   convergence to final temperature profile in  1.17579E+09 seconds
   calculation completed after  11 orbits

ZONAL STATISTICS
 latitude(deg)  ave temp(K)  min temp(K)  @dec(deg)  max temp(K)  @dec(deg)  seas.amp(K)

OUTPUT FILES
    -88.          252.525      234.772       6.52      269.072     -19.18       17.150
    -82.          252.780      235.199       6.55      268.871     -18.74       16.836
    -77.          253.535      236.462       6.51      268.405     -17.08       15.972
    -72.          254.758      238.450       6.11      268.256     -12.93       14.903
    -68.          256.460      241.058       5.28      269.008      -7.71       13.975
    -62.          258.666      244.217       4.26      270.531      -4.08       13.157
    -58.          261.318      247.883       3.19      272.565       0.01       12.341
    -52.          264.295      252.000       2.05      274.569       0.01       11.285
    -47.          267.489      256.517       0.89      276.667       0.01       10.075
    -43.          270.775      261.387      -0.24      278.759       0.01        8.686
    -37.          273.971      266.462      -1.14      280.738       0.01        7.138
    -32.          276.758      270.830      -0.18      282.503       0.01        5.836
    -28.          279.119      274.313       2.82      283.977       0.01        4.832
    -23.          281.091      277.112       7.85      285.098       0.01        3.993
    -18.          282.682      279.400      11.46      285.820       0.01        3.210
    -13.          283.872      281.316      13.96      286.099       0.01        2.391
     -7.          284.637      282.873      16.72      285.893       0.05        1.510
     -2.          284.984      284.007      20.46      285.860     -17.97        0.926
      2.          284.939      283.881      -5.39      286.495     -11.58        1.307
      7.          284.386      282.018      -3.68      286.956      -5.63        2.469
     12.          283.397      279.523      -3.36      287.208      -0.83        3.843
     17.          281.984      276.387      -3.36      287.205       2.93        5.409
     23.          280.152      272.609      -3.59      286.914       5.71        7.153
     28.          277.979      268.055      -3.65      286.338       7.00        9.142
     32.          275.447      262.831      -4.08      285.439       7.47       11.304
     38.          272.605      257.648      -4.83      284.207       7.72       13.279
     42.          269.639      252.519      -7.83      282.683       7.67       15.082
     47.          266.658      247.641      -8.38      280.913       7.41       16.636
     52.          263.740      243.129      -8.80      278.962       7.03       17.916
     58.          260.967      239.037      -9.13      276.906       6.71       18.934
     63.          258.429      235.411      -9.38      274.855       6.36       19.722
     68.          256.194      232.310      -9.46      272.924       5.98       20.307
     72.          254.343      229.795      -9.41      271.075       5.48       20.640
     78.          252.947      227.923      -9.27      269.521       5.25       20.799
     82.          252.069      226.765      -9.11      268.460       5.40       20.848
     88.          251.770      226.374      -9.06      268.091       5.77       20.859

ICE LINES (Tave = 263K)
  ice-line latitude = -54.4 degrees.
  ice-line latitude =  53.6 degrees.

CO2 CONDENSATION
  planet average co2 ice cloud coverage = 0.139
  atmospheric CO2 % loss to surface =  0.00

GEOGRAPHIC DATA
planet ocean fraction: 0.7
coast latitude:   0.0
geography: 1
number of belts: 36
  latitude of belt center  belt ocean fraction
           -87.5                   0.000
           -82.5                   0.000
           -77.5                   0.107
           -72.5                   0.386
           -67.5                   0.795
           -62.5                   0.997
           -57.5                   0.999
           -52.5                   0.985
           -47.5                   0.975
           -42.5                   0.964
           -37.5                   0.934
           -32.5                   0.842
           -27.5                   0.784
           -22.5                   0.754
           -17.5                   0.764
           -12.5                   0.796
            -7.5                   0.769
            -2.5                   0.759
             2.5                   1.000
             7.5                   0.852
            12.5                   0.771
            17.5                   0.655
            22.5                   0.287
            27.5                   0.312
            32.5                   0.450
            37.5                   0.407
            42.5                   0.438
            47.5                   0.512
            52.5                   0.568
            57.5                   0.577
            62.5                   0.596
            67.5                   0.652
            72.5                   0.708
            77.5                   0.765
            82.5                   0.757
            87.5                   0.786
