
OBLIQUITY: 23.50 degrees


**LATITUDE GRID DATA**
          x      dx    latitude(rad)  latitude(deg)
    0  -1.000   0.001     -1.571        -90.0
    1  -0.999   0.008     -1.527        -87.5
    2  -0.991   0.015     -1.440        -82.5
    3  -0.976   0.023     -1.353        -77.5
    4  -0.954   0.030     -1.265        -72.5
    5  -0.924   0.037     -1.178        -67.5
    6  -0.887   0.044     -1.091        -62.5
    7  -0.843   0.050     -1.004        -57.5
    8  -0.793   0.056     -0.916        -52.5
    9  -0.737   0.062     -0.829        -47.5
   10  -0.676   0.067     -0.742        -42.5
   11  -0.609   0.071     -0.654        -37.5
   12  -0.537   0.076     -0.567        -32.5
   13  -0.462   0.079     -0.480        -27.5
   14  -0.383   0.082     -0.393        -22.5
   15  -0.301   0.084     -0.305        -17.5
   16  -0.216   0.086     -0.218        -12.5
   17  -0.131   0.087     -0.131         -7.5
   18  -0.044   0.087     -0.044         -2.5
   19   0.044   0.087      0.044          2.5
   20   0.131   0.086      0.131          7.5
   21   0.216   0.084      0.218         12.5
   22   0.301   0.082      0.305         17.5
   23   0.383   0.079      0.393         22.5
   24   0.462   0.076      0.480         27.5
   25   0.537   0.071      0.567         32.5
   26   0.609   0.067      0.654         37.5
   27   0.676   0.062      0.742         42.5
   28   0.737   0.056      0.829         47.5
   29   0.793   0.050      0.916         52.5
   30   0.843   0.044      1.004         57.5
   31   0.887   0.037      1.091         62.5
   32   0.924   0.030      1.178         67.5
   33   0.954   0.023      1.265         72.5
   34   0.976   0.015      1.353         77.5
   35   0.991   0.008      1.440         82.5
   36   0.999   0.001      1.527         87.5
   37   1.000   0.000      1.571         90.0

SUMMARY
   planet average temperature = 284.380 Kelvin
   planet average albedo =   0.307
   planet average insolation = 339.947 Watts/m^2
   planet average outgoing infrared = 236.005 Watts/m^2
   seasonal-average weathering rate =  1.91858E+14 g/year
   co2 partial pressure =  3.29984E-04 bars
   surface water vapor % (by volume) =   1.269
   total surface pressure =  1.01319E+00 bars
   thermal diffusion coefficient (D) =  5.54593E-01 Watts/m^2 K
   convergence to final temperature profile in  2.52495E+08 seconds
   calculation completed after   9 orbits

ZONAL STATISTICS
 latitude(deg)  ave temp(K)  min temp(K)  @dec(deg)  max temp(K)  @dec(deg)  seas.amp(K)

OUTPUT FILES
    -88.          259.276      245.963       4.50      275.116     -20.40       14.576
    -82.          259.653      246.690       4.62      274.744     -19.78       14.027
    -77.          260.756      248.806       4.00      273.885     -17.79       12.539
    -72.          262.531      252.042       2.16      273.175     -14.23       10.567
    -68.          264.978      256.146      -0.70      273.485      -6.88        8.670
    -62.          268.135      260.984      -3.91      274.841      -1.70        6.928
    -58.          271.810      266.363      -6.86      277.074       0.03        5.356
    -52.          275.570      271.380      -3.83      279.866       0.03        4.243
    -47.          279.078      275.278      -0.03      282.940      -0.76        3.831
    -43.          282.387      278.765       2.01      286.007      -1.46        3.621
    -37.          285.451      281.985       3.22      288.881      -1.82        3.448
    -32.          288.224      284.955       4.58      291.442      -2.01        3.244
    -28.          290.686      287.688       5.77      293.616      -1.74        2.964
    -23.          292.802      290.168       6.68      295.348      -0.87        2.590
    -18.          294.536      292.361       7.51      296.617       0.03        2.128
    -13.          295.844      294.185       8.70      297.400       0.03        1.608
     -7.          296.691      295.567      11.14      297.698       5.15        1.066
     -2.          297.063      296.458      15.32      297.488       9.28        0.515
      2.          296.938      296.507      -9.07      297.537     -14.92        0.515
      7.          296.276      295.057      -5.73      297.536      -8.69        1.240
     12.          295.093      292.930      -5.85      297.190      -3.99        2.130
     17.          293.407      290.183      -7.44      296.468       0.24        3.143
     23.          291.258      286.956      -9.54      295.344       4.19        4.194
     28.          288.750      283.541      -9.29      293.744       5.31        5.102
     32.          285.901      280.011      -7.74      291.615       5.04        5.802
     38.          282.704      276.311      -5.73      288.994       5.00        6.342
     42.          279.189      272.295      -1.58      285.945       4.50        6.825
     47.          275.315      267.274       0.03      282.551       3.57        7.639
     52.          271.007      261.293       0.03      278.931       2.83        8.819
     58.          266.617      255.746       0.03      275.229       2.36        9.742
     63.          262.442      250.824      -0.01      271.580       2.36       10.378
     68.          258.676      246.562      -0.64      267.920       2.67       10.679
     72.          255.553      243.030      -1.07      264.728       4.96       10.849
     78.          253.219      240.320      -1.35      262.519      10.29       11.100
     82.          251.774      238.552      -1.62      261.439      12.96       11.443
     88.          251.282      237.921      -1.58      261.099      13.29       11.589

ICE LINES (Tave = 263K)
  ice-line latitude = -71.2 degrees.
  ice-line latitude =  61.7 degrees.

CO2 CONDENSATION
  planet average co2 ice cloud coverage = 0.000
  atmospheric CO2 % loss to surface =  0.00

GEOGRAPHIC DATA
planet ocean fraction: 0.7
coast latitude:   0.0
geography: 1
number of belts: 36
  latitude of belt center  belt ocean fraction
           -87.5                   0.000
           -82.5                   0.000
           -77.5                   0.107
           -72.5                   0.386
           -67.5                   0.795
           -62.5                   0.997
           -57.5                   0.999
           -52.5                   0.985
           -47.5                   0.975
           -42.5                   0.964
           -37.5                   0.934
           -32.5                   0.842
           -27.5                   0.784
           -22.5                   0.754
           -17.5                   0.764
           -12.5                   0.796
            -7.5                   0.769
            -2.5                   0.759
             2.5                   1.000
             7.5                   0.852
            12.5                   0.771
            17.5                   0.655
            22.5                   0.287
            27.5                   0.312
            32.5                   0.450
            37.5                   0.407
            42.5                   0.438
            47.5                   0.512
            52.5                   0.568
            57.5                   0.577
            62.5                   0.596
            67.5                   0.652
            72.5                   0.708
            77.5                   0.765
            82.5                   0.757
            87.5                   0.786
